4100
200
ECG0
0
2
INIT
Authorization: eyJhbGciOiJSUzI1NiIsImtpZCI6Ijg3YzFlN2Y4MDAzNGJiYzgxYjhmMmRiODM3OTIxZjRiZDI4N2YxZGYiLCJ0eXAiOiJKV1QifQ.eyJpc3MiOiJodHRwczovL3NlY3VyZXRva2VuLmdvb2dsZS5jb20vaGVhcnRmZWx0LTAiLCJhdWQiOiJoZWFydGZlbHQtMCIsImF1dGhfdGltZSI6MTY4MDk4ODA4MCwidXNlcl9pZCI6ImtQeVFpVGw3YnplS0dWek5qazloeTFvcTBOZjEiLCJzdWIiOiJrUHlRaVRsN2J6ZUtHVnpOams5aHkxb3EwTmYxIiwiaWF0IjoxNjgwOTg4MDgwLCJleHAiOjE2ODA5OTE2ODAsImVtYWlsIjoia2toYXJrb3ZAZ3d1LmVkdSIsImVtYWlsX3ZlcmlmaWVkIjpmYWxzZSwiZmlyZWJhc2UiOnsiaWRlbnRpdGllcyI6eyJlbWFpbCI6WyJra2hhcmtvdkBnd3UuZWR1Il19LCJzaWduX2luX3Byb3ZpZGVyIjoicGFzc3dvcmQifX0.iqLZWgMPfzxMrmL8gflMer30tTUKysSBzQRDRp1oeRbYbtOymomKhu5GdigIXdb3OFBZ87KQOJmbcQi-hGrAcvRv17OmGxSXD6HKKsftcGn53N3VyH_Ma50we9Q8YvNPdY6WhUaVbAzLWH_92_pnBhzV6SY_VeS5ZqKqE9nOcefEUWLQ5UXDEJ0vuDaZtkY3vuoQIFZgY3qqREkLDFYh34naXnCJH-RP1K4CMi9v385oFzkyM7Iu1qH1CjiBiwl1LJCaNiafJSxDynMvE3qUy7pf0Ja4tjuPimbQ9eMBWurD2m_3AVYKskfXdw_cONxZp3EICk-eYMq7b4Quegr6NA

260654
259788
1584
262075
258988
360
1410
259425
260944
1960
260653
259610
1485
175
259125
237
1353
259425
260819
1845
260618
259593
1483
131
259074
291
1599
259600
260802
1911
260738
259548
2084
461
259008
800
2338
360
260570
1410
1410
1410
1410
1410
1410
1410
259425
259425
259425
259425
259425
259425
336
260944
260944
260944
260944
260944
260613
1960
1960
1960
259310
522
958
258483
261892
2748
259604
259289
261894
170
259816
1463
261278
258142
261224
261725
258251
261422
4115
261801
258293
1725
755
260763
2569
1592
258808
259958
1594
260939
260248
895
261192
259933
274
3317
261952
259490
1300
259293
256542
261601
920
259508
260287
261096
259316
513
5805
1041
259716
1813
256
258904
259448
260658
260308
261285
2888
259795
256451
563
341
258173
259085
3239
262139
262095
3466
686
258500
1113
1982
258866
261686
3178
259888
258046
218
258903
256825
261500
261504
257321
260420
4014
262088
260
3328
260996
259607
2679
2549
260762
258987
1288
261207
259190
260432
258352
259208
425
260647
257244
259060
974
259189
260236
4454
1784
260447
2395
3157
260988
261960
2614
259452
258397
262001
1496
261102
261663
1256
257900
260790
261946
258801
260419
2664
885
260760
143
261670
259776
633
431
260336
520
3713
329
259309
1737
3468
260237
1230
4018
261433
261337
3041
261586
256547
261808
683
258616
260993
536
257702
257474
3622
1355
258607
87
1994
260730
261130
2451
119
260355
3407
8
257294
2604
3460
260371
259229
2314
261483
259275
2555
654
259205
1101
2340
261482
1981
4911
863
261982
517
259945
257397
262037
1850
261312
259573
2632
1577
261026
745
261513
258550
260489
841
260470
260133
4049
260650
259091
1815
1524
261370
168
1401
260196
261788
3720
261297
255998
260287
259680
258308
260784
1340
259160
257330
260316
257451
258733
733
1362
259168
260314
261843
260504
259508
110
262042
258777
979
2767
260952
261267
1177
260743
258237
261703
261732
258552
260905
637
261039
71
229
259863
260416
1147
259801
258160
261591
388
259216
271
3469
624
260844
261341
259931
256724
261151
261853
260419
260307
371
259717
261374
2907
807
261085
2983
3778
260988
1848
2183
258135
260790
1254
261283
256331
260160
260078
259766
261872
2651
260050
258309
260420
260597
259803
262023
2047
260673
259848
262048
261230
259798
261661
260056
258206
149
1972
260165
260928
1498
260709
374
2801
261749
258541
261660
224
259402
259875
1470
1354
262010
3143
1380
259394
256
2623
260602
870
813
256967
256592
261506
259579
255797
261033
306
259046
1099
3021
259435
260272
2143
261443
259786
1029
3088
911
1683
4177
394
261073
2147
261095
259827
2219
3694
1431
261118
1617
260068
258626
2823
293
256920
261206
1282
258975
259520
2428
1073
261278
661
261128
258005
260775
379
259131
179
1730
258861
257988
2056
1022
260019
1358
3185
261902
259928
1377
204
261700
866
261673
257930
259736
1372
261625
262007
2708
260434
257799
261525
261394
259210
1645
2301
259581
259380
2119
745
149
1101
261004
257933
260578
792
260124
260327
1653
1370
19
778
261597
258480
262097
3100
260916
260744
1850
40
257071
259784
204
258819
136
871
260089
261220
472
260069
260822
264
260152
255859
259629
2391
261466
259750
551
260279
259923
1657
1240
260489
943
261391
258420
260076
1690
966
258405
261303
261979
258943
259813
274
258852
260295
2345
262131
260866
260852
261026
260063
2545
2658
260860
258412
2220
261581
258789
477
262044
258397
261640
2692
419
97
3871
2927
261401
262133
866
259713
554
2919
261127
382
404
259221
259541
1112
1902
258232
261018
1849
259959
259267
1838
261638
257512
1468
950
259265
1198
2510
260486
260104
261347
489
260540
23
261761
258948
260794
2723
1888
261502
3427
54
258294
261000
1970
259200
260624
3448
261435
259116
702
1198
257453
260850
343
260863
261157
4151
3801
2186
1790
261839
261499
1984
4875
261935
260561
851
261132
260070
3302
3217
260082
262071
3765
1356
791
5053
541
259477
2315
175
259475
261345
260110
259214
261501
50
261323
260773
1437
664
260032
1538
261424
257050
258914
1999
1390
259893
2373
2930
260742
260216
1017
260824
648
3845
260998
258249
541
814
258906
988
3749
261970
259934
1763
940
260788
262039
260536
258638
261425
2431
259838
257818
678
1786
261689
1169
529
258148
260970
1568
261042
261038
2064
259126
256986
261667
262003
260383
1987
1085
258589
30
2704
260043
258546
261387
261109
257280
392
1325
259791
260127
2173
261611
261011
1445
261900
256885
262015
1702
260129
260856
1362
259681
258881
261805
260667
259573
2413
1892
260234
258483
259974
258710
256289
261888
1083
259326
260443
2751
181
258938
143
91
261152
1634
604
258378
261933
3942
13
258035
260007
258423
257242
434
2712
259827
259373
1121
261406
257572
965
2476
660
1146
260689
257198
261611
3607
260530
260017
2858
1092
259003
323
261861
260130
261785
3472
261407
258805
905
260424
255492
260302
836
259007
995
2976
259659
261162
261605
261700
317
454
2076
260633
260657
228
262097
258902
2656
1229
259048
1950
3035
261211
261282
261726
257435
259354
2767
2199
261029
1444
2075
260343
1336
3138
261206
260754
261201
259709
260572
261401
390
261453
261605
726
257845
256460
57
2333
259017
261533
261883
260656
262054
1800
261065
260219
261903
259603
258962
261588
1761
261061
261122
259723
258749
257945
259055
260443
260455
100
678
258410
258774
2462
258665
247401
234937
241548
241694
319
12437
251923
252395
13171
260932
248615
7468
7092
249925
2799
14208
254658
256841
12488
259675
247685
8019
6157
245928
84
12741
252686
256327
15719
261848
249741
11620
12158
254145
3556
15715
1795
3688
14000
4597
260606
4959
6914
261957
2488
6159
258299
257698
1652
259493
255199
2498
2073
255100
258938
3046
257011
256245
2899
258284
252769
261018
821
257942
1443
6233
259608
260357
5552
90
256683
3148
5442
651
1669
4502
260787
260462
2579
1725
161
2834
2104
586
3598
5818
869
261404
2552
260442
257021
259307
261963
257960
258651
1568
285
259501
261128
261651
259100
159
2044
257691
257583
865
260257
260708
734
261913
259992
260454
259793
257995
259771
165
259750
258928
2294
1346
261418
260143
261110
257953
257980
259889
256486
257937
261266
1126
260716
1980
2331
259946
259489
260547
260376
262057
261299
258422
258823
260944
260476
261667
261120
261894
262114
261458
926
850
261072
261468
260704
258403
260069
22
261139
258596
261243
469
10
1466
1805
512
147
756
261646
259668
261287
694
258047
260720
1518
361
261710
67
261265
258385
259547
259569
259321
108
1970
261661
260606
260906
259859
258799
259876
259158
256783
259808
261387
506
261367
261011
262053
375
2120
1682
34
261758
1523
1212
260912
261960
261059
260423
1775
3106
260980
260272
261819
259747
613
991
260869
261792
1809
261224
259825
1133
4054
2451
261231
1623
1299
261079
743
509
259796
261342
432
260772
260559
130
261949
259310
260471
261650
260447
261655
874
576
413
1774
592
259960
261622
555
259756
259408
259276
259460
260743
2157
1378
260003
261650
2071
261081
260641
2097
449
261337
668
2301
787
261962
261068
260481
261874
332
833
261078
261414
261732
469
200
260988
1424
4063
1838
260938
261711
261916
261066
260757
1141
306
258241
260177
851
258997
262008
2191
264
260655
262141
1466
259469
391
4924
2818
260377
261417
259164
259217
260438
261118
260228
260852
521
65
220
908
261450
258994
261431
835
261723
261422
297
377
685
1310
209
259752
260935
1431
259250
259461
261984
260262
259861
33
300
258581
259584
1240
261778
299
1571
261789
261858
1696
261531
256757
258774
261470
259702
260450
903
77
261786
260007
789
260330
258402
260594
259756
151
261835
260016
259775
259989
260016
258837
261319
1559
1923
1132
24
261626
261160
296
260921
257174
257533
261373
191
261815
1978
262042
260451
1170
1642
261222
259995
260122
260324
259416
285
261053
259515
260937
261734
258181
261572
1152
260424
262003
1924
2289
261339
260216
260474
260778
1292
651
258184
258923
1083
2991
261972
430
261580
260270
764
3207
261612
259513
261115
261374
261236
411
262018
260397
262037
2673
580
149
2898
1085
1180
199
2438
327
260581
1350
168
260456
408
293
261556
940
260576
259198
259654
1145
261758
260718
348
259259
258141
258439
261608
261591
261253
417
730
261285
261903
138
261085
260907
260505
260298
566
3200
1979
262107
2609
297
259501
261703
1253
260804
261488
3051
257
259555
489
520
259899
1271
1208
436
2478
3859
262110
260711
260835
261253
260981
1068
2374
261585
260081
52
384
1990
839
28
259995
261109
260223
256274
259216
258950
257605
261682
513
258449
258293
259560
259021
260529
260676
261637
260413
260027
262010
261835
261053
1098
721
260490
261127
259824
258246
260077
261866
258529
258105
68
1574
2775
2070
1359
261696
261047
256
261895
260172
85
1474
260917
261964
2415
428
260876
261843
259860
259609
2120
2892
261331
261973
1594
261140
260552
458
61
258840
260258
261328
257848
261297
3095
1387
259599
259766
260127
258380
260583
262140
260881
260905
261103
258722
258642
261960
261249
259199
260823
1305
260684
261605
301
258962
258256
259909
259798
261380
30
316
261052
260209
261717
259891
258278
260414
450
261995
261784
999
261348
261826
1935
259979
258283
261253
260237
260233
1368
1716
2139
260781
259443
258699
258374
258699
260069
258373
261683
2962
711
300
1105
260974
257910
259834
262100
262108
813
260631
258604
261477
287
260114
207
1306
261930
260445
1628
2116
261297
187
2220
367
288
261723
779
260418
261197
262008
259773
258740
262027
261789
260523
1222
1400
258572
259063
261683
260857
259550
375
261662
258628
818
2183
260437
261214
2545
262085
259016
260012
259993
261714
1255
261919
261249
260462
260126
260922
258853
1101
2386
261118
84
412
258422
260261
261820
261673
261966
262118
910
262125
2258
1088
261677
1046
262069
260140
261983
1466
239
259792
344
3756
1734
261261
261218
262108
259201
259279
455
261810
261909
260948
260818
260960
261977
262030
259972
259753
261789
260722
259661
260988
259796
260124
248
1325
1781
1253
262056
259509
261254
1115
261369
261949
1172
324
260270
1380
1009
262060
539
262070
261201
258837
261689
261429
261374
1902
1992
259088
258874
261370
261182
261992
2577
1142
261438
3445
2372
260568
259966
238
748
259423
260568
259001
259680
2283
582
260809
261425
260918
256287
255425
257591
258084
257696
261633
1493
1102
203
261224
258496
259280
261247
259470
260650
1149
693
261006
259942
261997
262041
261353
262039
261081
259732
260046
260408
242
261962
1165
259675
258596
758
358
261180
1652
504
258444
259418
517
261031
260524
260137
259857
261542
261115
261748
260819
259766
1808
1005
259324
139
261723
261354
423
895
2276
383
260778
258229
259331
259859
258214
259123
115
262127
260423
261003
2023
681
258500
257983
260207
78
1253
781
261842
176
1803
261075
260883
1185
261959
260527
259593
260468
261502
660
261856
260560
260005
231
787
260335
259564
530
259505
261228
839
321
260854
262011
527
260436
262003
2283
262097
261330
261163
484
261778
261820
1224
298
1335
3420
260248
258784
260778
261236
1004
1331
260378
259570
214
790
258434
259085
261182
261276
259377
259112
258584
257221
84
1863
261984
260864
1501
262126
259813
904
177
259573
259732
260174
260588
260579
1549
261799
259457
379
262101
259266
261741
1681
260874
259545
261783
261128
260131
1929
650
259716
410
1985
260493
259732
469
528
631
3333
1349
259778
258986
69
260864
257236
260727
262136
259212
260453
261167
260809
1942
1227
261386
261975
2232
557
259357
259707
261150
1741
825
787
260715
258894
261040
260097
258767
260240
1660
261142
260697
258278
257305
260071
2195
3655
27
260128
261380
261011
261717
262090
258092
258864
358
1648
262087
260993
2278
261016
260802
261775
261777
260761
261360
1035
2103
2798
2337
260141
176
940
292
261695
369
732
261813
1877
3238
260991
260416
1935
261180
258445
261716
260526
259853
261141
880
260374
156
336
260526
261313
261927
906
56
3110
2556
258788
439
2797
261978
261129
259437
698
476
995
508
260198
1694
3565
261801
1303
3306
324
629
1233
261679
259947
260531
357
734
1092
1286
542
262017
261133
260616
257726
257611
260683
258725
259237
261964
259853
258209
260300
1194
259386
258046
259504
260795
258936
257973
258600
259570
875
2183
259794
258352
260544
260077
261493
261593
261424
261685
1810
1592
261262
261775
1014
400
261487
2292
1890
260817
20
260679
260266
259608
261340
261185
258617
260301
258695
258935
261322
261967
260037
258064
1170
2519
1168
922
262027
260710
455
262132
260083
261306
1097
260996
259957
261415
259683
257557
261100
429
258384
258498
2520
3391
260928
260567
1345
261434
261967
1550
261988
259853
1615
1135
261024
782
260810
259775
2498
640
259656
258645
706
1104
259452
1897
2382
261264
261504
260574
261751
261422
261403
202
261542
835
396
985
1969
2311
260965
260865
262136
260193
259427
1225
2199
1554
1039
1163
259510
258695
260709
62
261026
1492
3645
262142
261958
1674
260406
256556
260356
496
261399
365
261077
257130
258782
261134
260431
259590
669
994
261514
2294
53
259094
261107
1108
261783
262090
2693
260557
257195
261407
4358
2395
1796
515
260507
260533
324
260894
260715
259819
260642
260657
708
1616
1061
930
350
259854
261809
1645
261501
16
1225
2705
2613
771
2273
260376
258793
259206
258844
258696
258699
260687
259960
261052
261952
261193
258088
259591
1620
468
259808
262
260663
258234
736
1796
260879
261298
1349
806
1352
640
260352
259915
260906
260498
257853
258178
118
260683
258234
261551
262053
260681
910
558
260972
423
256
261760
260779
261390
260059
260815
260636
851
259400
258845
260693
260736
1749
3762
708
258147
260091
635
261803
1307
1084
259889
260325
261572
1961
2100
1354
359
261354
261361
1264
260769
259856
261841
261518
260369
261312
261083
257286
258756
261612
260417
261549
1706
2789
1560
2036
1974
259898
259420
260786
259896
261574
722
512
642
261458
261842
260151
261243
935
260979
259883
261084
261315
260752
261754
261387
258336
260782
1658
260324
261090
1227
258778
259720
262103
260686
258518
260173
1639
260110
260421
261919
260165
258146
468
261762
259811
908
1193
259794
261702
2988
2137
260599
261085
1093
262061
262021
359
260206
259494
339
1293
151
1231
628
259025
260192
260105
260077
262076
1791
261641
258230
262027
1217
260625
836
1271
526
1252
1363
378
260564
270
261708
260647
220
261600
261112
260882
1230
730
260372
260015
261785
258172
257220
265
2859
2386
1951
941
261139
261690
1759
261937
61
1940
1148
261137
260042
261853
47
261480
259798
261317
259811
260598
260582
260440
258481
260949
260096
261257
261406
259481
259686
482
261260
523
2675
392
261092
2222
2694
259775
257830
259476
259024
261650
564
261513
260125
1216
2315
261446
261909
2420
1787
261412
647
1464
257992
258666
261378
260711
260302
261957
259381
261748
242
261913
259305
260129
260379
259494
261883
262042
259645
205
3268
1527
261978
1584
1902
260229
260418
260778
260339
261534
943
259915
258979
202
261554
259280
258134
1709
1685
261567
1585
262096
260133
1158
261973
260655
261104
260982
261590
261581
260706
259990
258843
259249
262063
261283
512
2422
1504
260915
1558
949
260506
261893
1682
876
178
261469
261191
259660
259307
261018
260646
765
2303
261590
259869
1184
623
256924
261278
3485
112
262138
2404
1659
1375
1533
261403
261414
923
2289
260373
260038
261259
260413
260284
260961
260032
260317
1247
1192
196
261677
260749
259367
258201
261358
261514
260480
260473
261074
257600
259738
1744
257882
257007
260633
2099
48
261610
2644
261369
260252
1697
1080
261386
261424
259796
258425
259836
661
261488
257644
259170
260091
261759
2773
402
259422
260741
262118
261932
771
1257
260719
740
2281
260924
259001
260758
261606
260251
260645
1381
259846
259958
1463
122
690
3121
330
260829
261223
261996
260924
261171
261201
258369
257923
259952
261243
258724
260396
807
260939
260943
537
1635
521
1362
1737
259897
258780
261696
261751
262108
1673
748
259148
259154
261197
260099
257199
260753
260403
259333
262032
720
259057
258805
260062
258851
259009
1031
262125
261244
2511
1180
260977
1143
2204
259769
257867
258869
257760
259040
975
677
259748
261983
1876
481
1391
585
260013
258714
260036
1206
261520
260602
260365
260058
2093
25
260765
1354
3787
1904
50
261571
260325
258865
258671
261943
260874
260244
462
1443
260844
259340
261058
259251
259101
509
1683
1509
868
260944
258767
261839
2926
261160
260536
1062
262079
260752
261843
2654
262036
262057
767
261724
260491
330
261338
261145
261448
951
261576
261053
806
262049
260945
1455
261911
259669
358
1804
258732
260939
1107
59
238
972
262126
261022
696
261966
258555
258986
222
261367
259797
115
261830
260876
512
1051
259631
593
2760
400
258193
259249
259494
261309
574
1626
1270
261333
1607
260110
260335
671
261043
335
1483
2326
261565
261830
385
203
257986
257451
261397
261525
443
234
258401
257997
294
261852
260684
502
786
260868
689
261649
257779
260283
1726
261933
261840
1361
6
259358
260320
1243
306
260546
260336
260402
260948
2520
2378
261042
871
1195
259066
257964
260393
261977
571
2008
261507
258182
260137
1877
1166
300
1180
260514
257770
259725
260660
261610
1125
225
259774
260962
262130
357
261793
955
689
233
261903
261649
259307
258771
1272
605
261594
2143
4077
691
1106
2622
2059
261419
1423
262107
260972
1747
110
259804
261505
1756
260927
261830
2889
924
260385
260479
261398
258712
259028
81
258154
261394
428
259967
260623
3488
2620
259690
259660
260471
424
2002
3261
260124
259242
261190
260438
259802
260658
2716
260867
260284
4153
2165
66
2776
1307
60
1604
262022
259012
260104
2295
923
260753
479
2237
1083
1478
604
260154
258450
261414
626
259380
261742
261797
260251
262032
1054
114
260475
262004
497
259907
259594
741
261087
258740
261298
258785
258483
261745
2252
510
2871
2531
260860
259692
258796
257051
258771
259776
259310
257154
260263
758
259383
258375
260610
261819
402
866
260799
257688
260263
31
261247
84
262101
260588
260883
260936
259453
260049
261932
261451
261204
261477
2155
260929
259502
261958
198
260202
260095
260219
261873
2075
1247
260739
261762
261957
261730
260115
418
259214
259762
261007
262038
260041
261899
163
261408
259677
261257
2747
224
260010
260033
259653
261913
2303
3177
937
1440
3392
1051
1082
2768
261285
259405
261406
938
323
2091
2338
261812
261696
261460
261955
259114
259900
415
156
261157
260177
260641
2153
2544
259844
257695
258954
260805
260300
260292
261036
259525
259190
261671
1101
261229
260976
524
260708
259188
261722
258651
258816
260188
259292
260745
2114
1271
118
261021
260808
261286
259411
262105
2274
261944
170
259774
257224
260058
1734
260973
260245
261062
261754
260785
261102
259486
259593
260445
260458
260583
259812
261142
260541
260322
261486
258870
259057
261848
388
259500
260038
2846
2900
261635
2555
3983
262020
731
2574
23
1807
434
259138
260986
873
261539
261096
261479
1893
259687
257588
258606
258541
260061
1003
132
261770
261546
260917
259443
261379
459
260518
260129
688
260111
257703
260769
1636
2152
2782
2939
890
260306
260937
261500
262065
260292
261695
125
260049
261055
261943
260610
261460
259628
257825
260450
741
260282
260239
4160
4149
261867
261994
262036
259305
261048
260646
259773
259040
259922
260773
258472
260799
1417
261446
261669
1652
261317
259302
58
259861
261079
1345
2399
260101
259468
248
261911
1348
1135
261294
259313
261072
2686
1730
1016
2293
359
641
2829
261770
260873
1786
485
260130
262092
1627
261580
261044
262134
307
258488
259641
326
262001
534
1793
261169
260856
260345
259517
259058
1743
3043
261090
261531
2594
261555
260062
1172
1358
261610
1840
201
259580
461
3042
261762
257686
354
3597
260657
259389
261341
261289
261104
260346
364
260984
261159
260664
262118
261240
260970
257286
259182
1656
650
259139
421
1040
260642
1135
528
260942
259982
261463
261911
259747
260963
328
259556
261483
615
260891
261053
3254
2302
261220
261427
261221
259482
260123
529
1371
1967
2846
261758
258688
261686
261255
258387
258760
1157
1505
1334
2784
1270
603
424
261431
258245
260777
1843
890
393
261991
259912
259709
260207
260368
258656
336
1659
258819
258077
261678
261552
258668
259892
261442
260015
1765
1191
261186
260877
261657
592
261157
1051
260345
257578
260904
262101
707
2665
3393
1835
260640
260943
260972
259551
260507
1643
2165
261699
259472
259948
259924
260959
940
260373
261604
1070
328
608
1846
1711
260750
261090
175
260707
261789
261120
259699
258592
261477
830
897
3025
1484
258347
260980
2004
260142
257143
260912
225
260064
260551
915
1624
346
2169
551
260783
2745
988
259038
260364
259149
260191
383
2449
682
258607
262002
1038
261072
260199
260093
259818
260918
3155
262061
258760
259562
95
87
260370
259513
261873
1242
1755
260405
72
262064
261242
259572
260898
2
261651
260250
1875
262139
261336
896
261927
260783
261164
258599
259826
260484
259795
259717
258771
259330
260943
260556
261231
261265
259668
260366
261888
260199
259997
1571
1741
260681
809
3565
1508
261479
1323
261239
261328
261336
259163
259211
260648
890
261801
261070
1512
588
261492
935
261225
260149
536
261227
259830
259724
1505
1454
258895
259917
259843
258674
259244
261320
261769
1305
1829
1514
1743
1046
261821
259606
261427
260397
260224
260721
261176
1316
261666
190
261168
258493
259413
260263
259230
258685
261687
261778
506
306
259713
257363
261658
1033
443
919
1178
434
261117
260434
261666
522
889
1834
261531
259751
260065
260627
261399
552
977
469
262043
261970
260012
260548
399
261295
261885
261216
261677
260100
260792
1984
260662
258271
274
805
261302
261856
260737
261321
260553
259986
258298
261977
2517
511
260681
729
1694
261630
261543
803
1430
261190
260408
260762
100
261115
261110
260240
259538
260270
258586
257128
259827
261288
259875
261310
260302
258319
260022
261288
259514
259371
261354
261418
258861
262018
1684
1701
638
1362
261894
256604
259574
259236
258968
261976
1624
85
26
261659
261208
261220
469
2341
261967
522
4446
3051
1686
260263
257148
257240
261891
1678
102
261357
767
360
160
262065
259182
257775
1036
2354
258971
261653
3591
196
584
1253
149
262013
1008
1975
261765
260421
116
262136
260036
259147
261751
260251
262106
1757
261586
260084
261580
261018
261295
2935
261774
258887
1468
2865
260543
609
401
259325
261357
262094
261917
260015
261406
261613
260456
633
795
259342
258172
261206
291
261416
260814
533
261838
259365
261447
260241
262079
327
261009
1444
2486
260496
256782
259731
262009
260780
260592
259100
262054
260348
261933
36
261294
2128
2223
260404
260345
359
1195
261008
260337
261844
260659
261701
2914
262039
260668
1762
261839
261158
261951
587
261936
1391
778
261601
155
2406
260914
261097
1193
2162
260355
259089
261351
260251
259524
2202
3039
297
718
1481
258201
260185
261909
260256
260181
260376
523
527
1911
977
1215
261761
259685
260497
258588
259839
261497
261844
2861
3133
259778
258111
1181
2423
683
1224
261431
260177
261841
984
258068
258961
1811
1047
260473
998
1024
259331
63
496
260285
260913
261092
572
260955
611
262137
260955
2560
261793
259710
261712
260972
261002
261766
539
1123
260708
967
764
259384
262018
1058
291
259637
260037
261606
260251
261137
261264
261250
1276
87
258937
257992
260436
260030
259511
348
2403
261710
259786
261816
468
260854
985
145
262051
1861
261075
259548
260114
521
1552
261433
261184
261861
259678
259671
259828
259474
58
1887
1871
259981
260645
261724
259649
259013
258852
259829
875
2644
261198
259775
259722
259226
258910
259870
258587
260335
202
260952
260902
259261
261001
81
258590
260385
54
258312
259424
261027
132
261109
616
40
257598
257777
259742
258942
259623
1421
1169
259504
560
261579
259252
261627
261510
260075
260487
1548
1585
261201
261777
261168
258014
259143
512
261270
260533
1882
260560
259546
261889
260637
261165
261476
235
261561
258570
259256
928
413
262006
2927
1214
260328
261471
261291
260190
29
246
619
3367
2109
261425
2043
3856
261195
261652
261797
262055
260057
576
3087
261958
259621
243
1332
1675
127
261898
259877
261080
2340
261247
261471
261893
261180
66
2075
2311
260319
261398
892
261008
261500
260452
371
260380
262055
2224
260575
300
3744
402
260167
259485
260468
261830
1778
260316
258418
261073
261732
260944
468
261824
260792
259993
261642
1909
259996
259391
260970
261865
261312
261060
258848
257330
259390
257790
257932
260279
261034
259298
259617
1646
1557
261903
527
261683
257751
260486
999
259928
258028
261213
260265
258361
260571
836
269
813
149
260947
260920
261053
260327
259227
459
261700
261115
174
261355
260785
163
261486
260031
258747
709
375
259278
261092
262103
259851
258467
261800
259403
259653
2122
4002
261858
260959
261881
261194
260835
261017
409
258077
259436
261322
261225
618
2731
262009
937
262042
259079
259043
508
2517
261618
261086
261726
260689
260244
262116
260499
258286
261591
260524
261227
47
1736
261047
260114
1167
261349
261648
261700
1288
261287
261456
260727
259898
275
1170
260352
258262
70
3083
260532
259747
1000
260715
258736
1777
3010
261637
260302
261439
261283
2177
261454
258817
261433
1015
1228
259779
258687
261638
1222
261512
261580
260517
439
2553
1344
261437
154
1488
260541
261640
1600
260888
259785
997
1779
63
258886
258506
258631
379
1267
260706
260473
261041
260643
259858
137
2663
988
260989
1019
1318
259396
258324
260032
260364
261306
573
260941
629
4164
261905
258215
259873
259816
257540
261868
1940
566
260334
1345
260527
257905
990
1566
261622
259939
258851
260722
1407
1436
259114
256637
596
1685
260775
985
2727
262116
259531
260531
261258
259566
258747
368
262074
260026
259753
260939
261988
2022
1083
258671
